time (s)	det(V)
3054.875540	-1.396953	
3054.877541	-1.384530	
3054.881541	-1.369131	
3054.883540	-1.347430	
3054.885540	-1.329136	
3054.889540	-1.312388	
3054.891542	-1.258612	
3054.893540	-1.237347	
3054.895541	-1.218805	
3054.897540	-1.190489	
3054.901539	-1.163915	
3054.905539	-1.113043	
3054.907540	-1.048275	
3054.909540	-1.017783	
3054.911540	-0.986105	
3054.913540	-0.954714	
3054.915541	-0.924747	
3054.917543	-0.892395	
3054.919540	-0.869899	
3054.921541	-0.843425	
3054.923540	-0.810081	
3054.927540	-0.779550	
3054.929540	-0.712441	
3054.931540	-0.683516	
3054.933540	-0.652882	
3054.935540	-0.625505	
3054.937540	-0.599537	
3054.939540	-0.566106	
3054.943540	-0.542950	
3054.947540	-0.479020	
3054.949540	-0.413428	
3054.951540	-0.382147	
3054.953540	-0.345365	
3054.955542	-0.310070	
3054.957540	-0.268800	
3054.959540	-0.226034	
3054.963540	-0.192903	
3054.965540	-0.100358	
3054.969540	-0.054143	
3054.971540	0.052492	
3054.973540	0.108418	
3054.975540	0.162457	
3054.977540	0.219000	
3054.979541	0.281603	
3054.981540	0.330394	
3054.983540	0.387728	
3054.985540	0.442817	
3054.987540	0.499115	
3054.991540	0.561604	
3054.993541	0.686664	
3054.995540	0.748519	
3054.997540	0.803523	
3054.999539	0.858848	
3055.001540	0.915606	
3055.003540	0.961002	
3055.007539	1.012184	
3055.011540	1.112383	
3055.013540	1.208296	
3055.015540	1.240610	
3055.017540	1.271923	
3055.019540	1.307765	
3055.021540	1.338555	
3055.023540	1.362715	
3055.027540	1.387583	
3055.031540	1.432028	
3055.033540	1.467870	
3055.035541	1.482262	
3055.037540	1.486320	
3055.039539	1.498162	
3055.041540	1.508196	
3055.043540	1.502615	
3055.047540	1.507336	
3055.051540	1.505036	
3055.053540	1.503494	
3055.055540	1.500317	
3055.057540	1.493206	
3055.059540	1.488157	
3055.061540	1.481001	
3055.063541	1.467097	
3055.067539	1.456612	
3055.071540	1.440821	
3055.073541	1.428132	
3055.075540	1.420346	
3055.077540	1.407287	
3055.079540	1.401268	
3055.081540	1.390332	
3055.083539	1.370455	
3055.085540	1.361597	
3055.089540	1.343502	
3055.091540	1.325573	
3055.093540	1.315641	
3055.095540	1.305381	
3055.097541	1.290300	
3055.099540	1.271251	
3055.101540	1.257207	
3055.103542	1.241169	
3055.105541	1.223197	
3055.107540	1.208801	
3055.109541	1.189973	
3055.113540	1.170710	
3055.115540	1.135527	
3055.117540	1.115481	
3055.119540	1.090669	
3055.121540	1.065644	
3055.123540	1.045174	
3055.127539	1.015550	
3055.131539	0.968247	
3055.133540	0.915192	
3055.135540	0.893008	
3055.137540	0.861932	
3055.139540	0.835498	
3055.141540	0.810654	
3055.143540	0.784380	
3055.147539	0.752777	
3055.149540	0.696003	
3055.153540	0.669865	
3055.155540	0.623421	
3055.157539	0.603463	
3055.159542	0.578213	
3055.161540	0.553354	
3055.163540	0.536049	
3055.165540	0.503540	
3055.169540	0.481575	
3055.173541	0.437895	
3055.175540	0.413028	
3055.177540	0.398338	
3055.179540	0.384030	
3055.181540	0.366021	
3055.183541	0.350475	
3055.185539	0.328754	
3055.189540	0.310043	
3055.193541	0.286578	
3055.195540	0.269747	
3055.197546	0.258478	
3055.199540	0.244223	
3055.201540	0.235181	
3055.203540	0.226309	
3055.205540	0.209066	
3055.209540	0.202448	
3055.213540	0.187302	
3055.215540	0.178352	
3055.217541	0.173526	
3055.219540	0.164766	
3055.221540	0.156404	
3055.223540	0.155392	
3055.225540	0.141884	
3055.229540	0.137756	
3055.233540	0.126364	
3055.235540	0.121534	
3055.237540	0.117773	
3055.239540	0.110851	
3055.241540	0.107305	
3055.243540	0.105223	
3055.245540	0.093014	
3055.249540	0.088716	
3055.253540	0.079112	
3055.255540	0.074970	
3055.257541	0.073267	
3055.259540	0.067838	
3055.261540	0.063622	
3055.263540	0.064473	
3055.265540	0.050319	
3055.269540	0.044809	
3055.273540	0.036340	
3055.275540	0.036186	
3055.277540	0.036775	
3055.279540	0.032922	
3055.281540	0.028350	
3055.283540	0.025681	
3055.285540	0.013429	
3055.289539	0.011498	
3055.293540	0.008604	
3055.295540	0.010818	
3055.297540	0.010163	
3055.299540	0.003137	
3055.301540	0.003395	
3055.303540	0.001913	
3055.305540	-0.008661	
3055.309539	-0.008028	
3055.313540	-0.010999	
3055.315540	-0.006477	
3055.317540	-0.006586	
3055.319540	-0.010053	
3055.321540	-0.013118	
3055.323540	-0.010702	
3055.325540	-0.018261	
3055.329540	-0.018017	
3055.333540	-0.019001	
3055.335540	-0.015029	
3055.337541	-0.013201	
3055.339541	-0.015667	
3055.341540	-0.014732	
3055.343540	-0.012850	
3055.345540	-0.020709	
3055.347540	-0.019823	
3055.351540	-0.021205	
3055.353540	-0.019219	
3055.355540	-0.015497	
3055.357542	-0.013645	
3055.359540	-0.012497	
3055.361540	-0.013839	
3055.363540	-0.009982	
3055.365540	-0.014089	
3055.367540	-0.018897	
3055.369540	-0.017776	
3055.373540	-0.020822	
3055.375540	-0.013355	
3055.377540	-0.009417	
3055.379539	-0.008728	
3055.381540	-0.010323	
3055.383541	-0.009708	
3055.385540	-0.010031	
3055.389539	-0.016728	
3055.393539	-0.014769	
3055.395540	-0.010244	
3055.397540	-0.008490	
3055.399540	-0.008248	
3055.401540	-0.010234	
3055.403540	-0.009127	
3055.405540	-0.009780	
3055.409539	-0.014277	
3055.413539	-0.014757	
3055.415541	-0.010418	
3055.417540	-0.007483	
3055.419540	-0.006944	
3055.421540	-0.010438	
3055.423540	-0.007576	
3055.425540	-0.006843	
3055.429539	-0.012061	
3055.431540	-0.012238	
3055.435540	-0.013459	
3055.437540	-0.008202	
3055.439540	-0.005926	
3055.441540	-0.007447	
3055.443539	-0.006219	
3055.445540	-0.004189	
3055.449540	-0.011267	
3055.451540	-0.012223	
3055.455540	-0.013389	
3055.457540	-0.004749	
3055.459540	-0.003741	
3055.461540	-0.005283	
3055.463540	-0.002102	
3055.465539	-0.002982	
3055.469539	-0.009817	
3055.471540	-0.010175	
3055.475540	-0.009282	
3055.477540	0.000827	
3055.479540	0.001677	
3055.481540	0.000538	
3055.483540	0.000157	
3055.485541	0.002981	
3055.487540	-0.006503	
3055.491540	-0.005865	
3055.495540	-0.002816	
3055.497539	0.006358	
3055.499540	0.005912	
3055.501540	0.004062	
3055.503540	0.004428	
3055.505540	0.005916	
3055.507540	0.000484	
3055.511540	-0.000247	
3055.515540	0.004070	
3055.517540	0.010550	
3055.519540	0.010930	
3055.521540	0.008393	
3055.523540	0.010815	
3055.525540	0.012772	
3055.529539	0.007491	
3055.531540	0.007326	
3055.535540	0.007421	
3055.537540	0.014469	
3055.539540	0.014836	
3055.541540	0.013434	
3055.543540	0.016136	
3055.545540	0.017641	
3055.547540	0.010930	
3055.551540	0.009923	
3055.555540	0.009964	
3055.557542	0.017648	
3055.559540	0.018363	
3055.561542	0.015956	
3055.563540	0.020303	
3055.565540	0.020146	
3055.567542	0.012396	
3055.571540	0.009352	
3055.575540	0.012137	
3055.577543	0.019784	
3055.579540	0.021136	
3055.581540	0.019764	
3055.583540	0.019599	
3055.585542	0.020701	
3055.587540	0.012682	
3055.591542	0.012725	
3055.595540	0.014908	
3055.597542	0.023116	
3055.599540	0.022294	
3055.601540	0.020663	
3055.603540	0.021003	
3055.605540	0.022406	
3055.607539	0.016345	
3055.611540	0.016741	
3055.615540	0.020531	
3055.617540	0.025883	
3055.619541	0.025443	
3055.621540	0.024071	
3055.623540	0.026134	
3055.625539	0.027914	
3055.627540	0.022435	
3055.631540	0.021745	
3055.635540	0.024207	
3055.637540	0.029060	
3055.639541	0.030892	
3055.641539	0.031280	
3055.643540	0.032173	
3055.645540	0.035112	
3055.647540	0.028574	
3055.651540	0.026613	
3055.655540	0.028733	
3055.657540	0.036185	
3055.659541	0.038305	
3055.661540	0.036086	
3055.663540	0.039660	
3055.665540	0.041078	
3055.667540	0.032274	
3055.671540	0.031361	
3055.675540	0.032821	
3055.677540	0.041618	
3055.679540	0.042433	
3055.681540	0.041185	
3055.683540	0.041023	
3055.685540	0.041795	
3055.687540	0.033566	
3055.691540	0.033475	
3055.695540	0.035046	
3055.697540	0.042901	
3055.699540	0.042156	
3055.701541	0.039461	
3055.703540	0.040962	
3055.705540	0.039942	
3055.707540	0.034536	
3055.711540	0.033142	
3055.715542	0.036824	
3055.717540	0.039541	
3055.719540	0.039143	
3055.721540	0.037292	
3055.723540	0.037935	
3055.725540	0.040140	
3055.727540	0.032855	
3055.731540	0.032786	
3055.735540	0.031788	
3055.737540	0.036497	
3055.739540	0.038563	
3055.741541	0.037004	
3055.743540	0.037765	
3055.745540	0.040182	
3055.747540	0.033081	
3055.751540	0.030566	
3055.755540	0.031752	
3055.757540	0.037881	
3055.759540	0.038790	
3055.761543	0.037001	
3055.763540	0.041227	
3055.765540	0.039108	
3055.767540	0.032189	
3055.769544	0.030463	
3055.773540	0.031476	
3055.775540	0.034387	
3055.777540	0.039898	
3055.779540	0.040504	
3055.781540	0.040444	
3055.783540	0.037698	
3055.785540	0.038285	
3055.787540	0.035225	
3055.789540	0.030348	
3055.791540	0.030934	
3055.795540	0.030643	
3055.797540	0.033559	
3055.799540	0.032224	
3055.801542	0.032694	
3055.803540	0.029489	
3055.805540	0.026443	
3055.807539	0.028503	
3055.809540	0.018310	
3055.811540	0.016850	
3055.813540	0.018697	
3055.815540	0.013238	
3055.819540	0.010540	
3055.821540	0.010445	
3055.823540	0.010170	
3055.825540	0.004839	
3055.827540	0.004621	
3055.829540	0.003165	
3055.833540	-0.010131	
3055.835540	-0.018369	
3055.839540	-0.022080	
3055.841541	-0.024089	
3055.843540	-0.027128	
3055.845540	-0.032956	
3055.847540	-0.036244	
3055.849540	-0.041482	
3055.851540	-0.054912	
3055.855539	-0.059767	
3055.859540	-0.070363	
3055.861539	-0.075675	
3055.863540	-0.076711	
3055.865540	-0.086921	
3055.867540	-0.092705	
3055.869540	-0.098131	
3055.871540	-0.111532	
3055.875540	-0.118401	
3055.879542	-0.126923	
3055.881541	-0.134180	
3055.883540	-0.140368	
3055.885540	-0.148552	
3055.887540	-0.154740	
3055.889540	-0.160759	
3055.891540	-0.173405	
3055.895540	-0.180976	
3055.899540	-0.194124	
3055.901540	-0.207272	
3055.903540	-0.214261	
3055.905540	-0.227805	
3055.907540	-0.234509	
3055.909540	-0.243678	
3055.911540	-0.261199	
3055.913539	-0.267688	
3055.919540	-0.294605	
3055.921541	-0.313502	
3055.923539	-0.325035	
3055.925540	-0.340985	
3055.927540	-0.353497	
3055.929540	-0.365631	
3055.931542	-0.388821	
3055.935540	-0.405084	
3055.939540	-0.433065	
3055.941541	-0.463768	
3055.943541	-0.482401	
3055.945540	-0.504102	
3055.947540	-0.522940	
3055.949540	-0.544976	
3055.951539	-0.576430	
3055.955540	-0.599217	
3055.959540	-0.645310	
3055.961540	-0.687924	
3055.963540	-0.709842	
3055.965540	-0.739535	
3055.967540	-0.764479	
3055.969539	-0.788947	
3055.973539	-0.821097	
3055.975540	-0.867713	
3055.979540	-0.890121	
3055.981540	-0.928305	
3055.983539	-0.951243	
3055.985540	-0.974311	
3055.989539	-1.013803	
3055.991540	-1.038967	
3055.993540	-1.055827	
3055.997540	-1.074289	
3055.999540	-1.107289	
3056.001541	-1.119300	
3056.003540	-1.133695	
3056.005540	-1.152325	
3056.007540	-1.164935	
3056.009540	-1.177763	
3056.011540	-1.192410	
3056.015540	-1.205642	
3056.019540	-1.228411	
3056.021540	-1.239718	
3056.023540	-1.243880	
3056.025541	-1.252132	
3056.027540	-1.257339	
3056.031539	-1.261545	
3056.033540	-1.280194	
3056.035540	-1.285232	
3056.039540	-1.289568	
3056.041541	-1.287867	
3056.043540	-1.290547	
3056.045541	-1.295081	
3056.047540	-1.292872	
3056.051540	-1.297658	
3056.053540	-1.304153	
3056.055540	-1.305809	
3056.057540	-1.300135	
3056.059540	-1.292482	
3056.061540	-1.288065	
3056.063540	-1.276904	
3056.065540	-1.275298	
3056.067540	-1.263628	
3056.071539	-1.254790	
3056.073540	-1.235370	
3056.075541	-1.219738	
3056.077540	-1.198242	
3056.079545	-1.169193	
3056.081540	-1.143858	
3056.083540	-1.114490	
3056.085540	-1.087410	
3056.087541	-1.053712	
3056.091539	-1.021588	
3056.093540	-0.950929	
3056.095540	-0.909042	
3056.097540	-0.864567	
3056.099540	-0.816406	
3056.101540	-0.769111	
3056.103540	-0.722367	
3056.105540	-0.677832	
3056.107540	-0.623447	
3056.111539	-0.574601	
3056.113540	-0.471896	
3056.115540	-0.421904	
3056.117539	-0.372336	
3056.119540	-0.315293	
3056.121540	-0.260296	
3056.123540	-0.204267	
3056.125540	-0.153070	
3056.127540	-0.098129	
3056.131539	-0.046903	
3056.135540	0.048497	
3056.137540	0.148009	
3056.139541	0.193699	
3056.141541	0.239434	
3056.143539	0.279422	
3056.145540	0.319590	
3056.147541	0.359356	
3056.151539	0.385253	
3056.153540	0.443006	
3056.157543	0.506096	
3056.159540	0.531927	
3056.161542	0.558074	
3056.163540	0.584805	
3056.165540	0.604245	
3056.167540	0.625704	
3056.169539	0.635601	
3056.173542	0.653774	
3056.177540	0.689652	
3056.179540	0.728672	
3056.181540	0.744093	
3056.183540	0.755927	
3056.185540	0.769873	
3056.187540	0.784291	
3056.189540	0.789772	
3056.193540	0.805675	
3056.197540	0.837425	
3056.199540	0.879842	
3056.201543	0.902125	
3056.203540	0.919585	
3056.205540	0.939511	
3056.207540	0.967330	
3056.209540	0.983506	
3056.213540	1.009682	
3056.217540	1.061966	
3056.219541	1.119115	
3056.221540	1.143831	
3056.223540	1.164620	
3056.225540	1.186646	
3056.227541	1.206321	
3056.229540	1.213578	
3056.233540	1.226172	
3056.237540	1.236499	
3056.239541	1.243016	
3056.241540	1.242363	
3056.243540	1.236182	
3056.245540	1.231238	
3056.247540	1.224354	
3056.249540	1.202066	
3056.253540	1.187425	
3056.257540	1.146368	
3056.259540	1.115104	
3056.261540	1.094454	
3056.263540	1.076847	
3056.265540	1.054272	
3056.267540	1.037027	
3056.269541	1.007274	
3056.273540	0.988186	
3056.277540	0.953755	
3056.279540	0.925081	
3056.281540	0.910377	
3056.283540	0.892421	
3056.285540	0.877752	
3056.287540	0.864498	
3056.289540	0.843192	
3056.291543	0.830323	
3056.295540	0.816044	
3056.297539	0.791166	
3056.299541	0.779307	
3056.301540	0.765826	
3056.303540	0.750448	
3056.305540	0.731688	
3056.307540	0.718935	
3056.309540	0.700518	
3056.311542	0.678627	
3056.313540	0.667407	
3056.315539	0.648175	
3056.319540	0.629328	
3056.321540	0.598857	
3056.323540	0.583753	
3056.325540	0.562780	
3056.327539	0.545618	
3056.329539	0.531869	
3056.333539	0.506962	
3056.335540	0.473857	
3056.339540	0.458351	
3056.341540	0.437646	
3056.343540	0.425154	
3056.345540	0.414720	
3056.347540	0.409177	
3056.349540	0.399997	
3056.353539	0.386638	
3056.355539	0.366199	
3056.359540	0.362949	
3056.361540	0.358293	
3056.363540	0.356479	
3056.365540	0.347996	
3056.367540	0.345176	
3056.369540	0.341805	
3056.373539	0.329317	
3056.375540	0.321144	
3056.379540	0.316516	
3056.381539	0.314757	
3056.383540	0.308179	
3056.385540	0.300314	
3056.387541	0.293507	
3056.389540	0.287095	
3056.393539	0.274355	
3056.395540	0.259832	
3056.399540	0.255274	
3056.401541	0.243750	
3056.403540	0.235921	
3056.405540	0.222713	
3056.407540	0.217710	
3056.409540	0.211731	
3056.411540	0.197064	
3056.415540	0.193205	
3056.419540	0.178287	
3056.421540	0.168392	
3056.423540	0.164034	
3056.425541	0.157416	
3056.427540	0.152473	
3056.429540	0.150185	
3056.431540	0.137354	
3056.435539	0.131618	
3056.439540	0.122322	
3056.441541	0.119692	
3056.443545	0.117177	
3056.445542	0.112903	
3056.447540	0.111841	
3056.449540	0.106897	
3056.451540	0.097211	
3056.453544	0.094209	
3056.457540	0.087004	
3056.459541	0.084125	
3056.461540	0.085930	
3056.463540	0.089360	
3056.465540	0.082863	
3056.467540	0.078905	
3056.469540	0.077496	
3056.471540	0.072264	
3056.473540	0.064596	
3056.475540	0.063384	
3056.479540	0.060685	
3056.481540	0.063265	
3056.483540	0.062243	
3056.485540	0.061927	
3056.487540	0.058664	
3056.489540	0.055862	
3056.491542	0.056896	
3056.495540	0.047540	
3056.499539	0.049368	
3056.501542	0.049345	
3056.503540	0.050294	
3056.505540	0.048199	
3056.507540	0.048685	
3056.509540	0.048425	
3056.511540	0.049606	
3056.515539	0.046838	
3056.519539	0.043002	
3056.521540	0.046621	
3056.523542	0.049645	
3056.525540	0.050595	
3056.527541	0.049275	
3056.529540	0.050792	
3056.531540	0.052767	
3056.535539	0.043940	
3056.537540	0.042683	
3056.541540	0.039651	
3056.543540	0.046364	
3056.545540	0.047706	
3056.547540	0.046573	
3056.549540	0.043403	
3056.551540	0.044025	
3056.555540	0.035523	
3056.557540	0.031099	
3056.561540	0.028582	
3056.563542	0.036149	
3056.565540	0.032490	
3056.567540	0.027737	
3056.569540	0.026419	
3056.571540	0.026289	
3056.575539	0.016627	
3056.577540	0.013034	
3056.581546	0.012000	
3056.583540	0.014201	
3056.585540	0.013301	
3056.587540	0.010296	
3056.589540	0.006869	
3056.591540	0.008919	
3056.595539	-0.001539	
3056.597540	0.001558	
3056.601540	-0.003359	
3056.603542	-0.000832	
3056.605540	-0.002470	
3056.607540	-0.003111	
3056.609540	-0.003967	
3056.611540	-0.002020	
3056.613540	-0.009162	
3056.617541	-0.011476	
3056.621540	-0.011784	
3056.623540	-0.007487	
3056.625540	-0.005942	
3056.627540	-0.006880	
3056.629540	-0.006077	
3056.631541	-0.002104	
3056.633540	-0.012268	
3056.637540	-0.011893	
3056.641540	-0.013265	
3056.643540	-0.005904	
3056.645540	-0.003435	
3056.647539	-0.002136	
3056.649540	-0.003701	
3056.651540	-0.001307	
3056.655539	-0.010449	
3056.657540	-0.011389	
3056.661540	-0.011580	
3056.663540	-0.005104	
3056.665540	-0.004957	
3056.667540	-0.008736	
3056.669540	-0.009782	
3056.671540	-0.010300	
3056.675540	-0.019242	
3056.677542	-0.021728	
3056.681540	-0.022863	
3056.683541	-0.021116	
3056.685540	-0.022053	
3056.687540	-0.026401	
3056.689540	-0.030140	
3056.691540	-0.030045	
3056.693540	-0.040901	
3056.697540	-0.043003	
3056.701540	-0.049657	
3056.703540	-0.050369	
3056.705540	-0.056154	
3056.707540	-0.060655	
3056.709540	-0.065031	
3056.711539	-0.066321	
3056.713540	-0.077637	
3056.717540	-0.084351	
3056.721540	-0.095350	
3056.723540	-0.099783	
3056.725540	-0.103061	
3056.727541	-0.110921	
3056.729542	-0.114946	
3056.731540	-0.117339	
3056.733542	-0.132472	
3056.737540	-0.136265	
3056.741540	-0.149512	
3056.743540	-0.151516	
3056.745540	-0.154869	
3056.747540	-0.158448	
3056.749540	-0.164633	
3056.751540	-0.166743	
3056.753540	-0.178761	
3056.755540	-0.186692	
3056.761541	-0.192711	
3056.763540	-0.192601	
3056.765541	-0.195660	
3056.767540	-0.204349	
3056.769540	-0.208180	
3056.771540	-0.212541	
3056.773540	-0.225084	
3056.777540	-0.230317	
3056.781540	-0.241566	
3056.783541	-0.248538	
3056.785540	-0.256158	
3056.787540	-0.264793	
3056.789540	-0.275374	
3056.791540	-0.279636	
3056.793540	-0.294658	
3056.797540	-0.303300	
3056.801540	-0.322581	
3056.803540	-0.335437	
3056.805540	-0.348720	
3056.807540	-0.360589	
3056.809540	-0.369925	
3056.811540	-0.380123	
3056.813540	-0.399109	
3056.817540	-0.410150	
3056.821540	-0.434412	
3056.823540	-0.459201	
3056.825542	-0.471491	
3056.827541	-0.491321	
3056.829539	-0.506513	
3056.831539	-0.520557	
3056.833540	-0.547482	
3056.837540	-0.564596	
3056.841540	-0.603767	
3056.843540	-0.632062	
3056.845539	-0.648582	
3056.847540	-0.666769	
3056.849540	-0.686899	
3056.851540	-0.704810	
3056.853540	-0.730853	
3056.857539	-0.754662	
3056.861540	-0.789033	
3056.863540	-0.818757	
3056.865540	-0.837418	
3056.867540	-0.859320	
3056.869540	-0.878030	
3056.873539	-0.895496	
3056.875540	-0.941077	
3056.877540	-0.959793	
3056.881540	-0.977532	
3056.883540	-1.006007	
3056.885540	-1.023350	
3056.887543	-1.041559	
3056.889540	-1.059950	
3056.893539	-1.071658	
3056.895540	-1.107491	
3056.897540	-1.117648	
3056.899540	-1.132582	
3056.901540	-1.140134	
3056.903541	-1.149529	
3056.905542	-1.163447	
3056.907540	-1.173550	
3056.909540	-1.181370	
3056.913540	-1.190848	
3056.915540	-1.215292	
3056.917540	-1.224335	
3056.919540	-1.232540	
3056.921541	-1.235520	
3056.923541	-1.242532	
3056.925540	-1.248361	
3056.927539	-1.258813	
3056.929540	-1.267183	
3056.933539	-1.276857	
3056.935540	-1.302528	
3056.937540	-1.311684	
3056.939540	-1.322606	
3056.941541	-1.321672	
3056.943541	-1.327778	
3056.945540	-1.329437	
3056.947540	-1.332777	
3056.949539	-1.334435	
